# 1U phase, Hornresp sim
freq,value
20.0,2.1
22.0,-4.3
24.0,-12.8
26.0,-26.4
28.0,-48.7
30.0,-78.2
32.0,-108.4
34.0,-132.1
36.0,-151.6
38.0,-163.8
40.0,-171.2
42.0,-175.4
44.0,-174.1
46.0,-167.3
48.0,-153.8
50.0,-133.2
52.0,-107.5
54.0,-79.4
56.0,-52.8
58.0,-30.6
60.0,-14.2
62.0,-4.1
64.0,1.8
66.0,4.2
68.0,4.8
70.0,4.3
75.0,3.1
80.0,2.2
90.0,1.1
100.0,0.4
120.0,-0.3
150.0,-0.8
200.0,-1.2
