# 1U 12"+CD two-way combined, REW gated 10 ms @1m, free-field
freq,value
80.0,91.8
85.0,93.6
90.0,95.0
95.0,96.2
100.0,97.0
110.0,97.7
120.0,98.1
130.0,98.3
150.0,98.5
170.0,98.7
200.0,98.9
250.0,99.1
300.0,99.2
350.0,99.2
400.0,99.1
500.0,99.0
600.0,98.9
700.0,98.7
800.0,98.5
900.0,98.3
1000.0,98.1
1200.0,97.9
1500.0,97.6
2000.0,97.3
2500.0,97.0
3000.0,96.6
4000.0,95.8
5000.0,94.8
6000.0,93.6
7000.0,92.1
8000.0,90.3
10000.0,87.9
12000.0,85.1
15000.0,81.0
18000.0,76.0
20000.0,72.3
