# 6U stacked 12"+CD two-way, Hornresp sim
freq,value
80.0,101.8
85.0,103.6
90.0,105.0
95.0,106.2
100.0,107.0
110.0,107.7
120.0,108.1
130.0,108.3
150.0,108.5
170.0,108.7
200.0,108.9
250.0,109.1
300.0,109.2
350.0,109.2
400.0,109.1
500.0,109.0
600.0,108.9
700.0,108.7
800.0,108.5
900.0,108.3
1000.0,108.1
1200.0,107.9
1500.0,107.6
2000.0,107.3
2500.0,107.0
3000.0,106.6
4000.0,105.8
5000.0,104.8
6000.0,103.6
7000.0,102.1
8000.0,100.3
10000.0,97.9
12000.0,95.1
15000.0,91.0
18000.0,86.0
20000.0,82.3
