# 1U 12"+CD two-way combined, Hornresp sim
freq,value
80.0,92.2
85.0,94.0
90.0,95.4
95.0,96.6
100.0,97.4
110.0,98.1
120.0,98.5
130.0,98.7
150.0,98.9
170.0,99.1
200.0,99.3
250.0,99.5
300.0,99.6
350.0,99.6
400.0,99.5
500.0,99.4
600.0,99.3
700.0,99.1
800.0,98.9
900.0,98.7
1000.0,98.5
1200.0,98.3
1500.0,98.0
2000.0,97.7
2500.0,97.4
3000.0,97.0
4000.0,96.2
5000.0,95.2
6000.0,94.0
7000.0,92.5
8000.0,90.7
10000.0,88.3
12000.0,85.5
15000.0,81.4
18000.0,76.4
20000.0,72.7
