# 1U dual-18 half-space measurement, REW gated 10 ms @1m
freq,value
20.0,61.4
22.0,64.3
24.0,67.2
26.0,70.1
28.0,72.9
30.0,75.7
32.0,78.4
34.0,80.9
36.0,83.2
38.0,85.3
40.0,87.3
42.0,89.1
44.0,90.6
46.0,91.7
48.0,92.6
50.0,93.4
52.0,94.2
54.0,95.0
56.0,95.8
58.0,96.5
60.0,97.1
62.0,97.6
64.0,98.0
66.0,98.3
68.0,98.5
70.0,98.6
72.0,98.7
74.0,98.6
76.0,98.5
78.0,98.2
80.0,97.8
85.0,97.0
90.0,96.0
95.0,94.8
100.0,93.4
110.0,90.1
120.0,86.3
140.0,78.8
160.0,72.0
200.0,61.7
