# 4U stacked dual-18, Hornresp sim
freq,value
20.0,75.2
22.0,78.1
24.0,80.9
26.0,83.7
28.0,86.5
30.0,89.3
32.0,92.1
34.0,94.7
36.0,97.1
38.0,99.3
40.0,101.3
42.0,103.1
44.0,104.7
46.0,105.8
48.0,106.7
50.0,107.5
52.0,108.2
54.0,109.0
56.0,109.8
58.0,110.5
60.0,111.1
62.0,111.7
64.0,112.1
66.0,112.5
68.0,112.8
70.0,113.0
72.0,113.1
74.0,113.1
76.0,113.0
78.0,112.8
80.0,112.5
85.0,111.7
90.0,110.8
95.0,109.7
100.0,108.3
110.0,105.1
120.0,101.4
140.0,94.1
160.0,87.4
200.0,77.2
