# 6U stacked dual-18, Hornresp sim
freq,value
20.0,78.8
22.0,81.7
24.0,84.5
26.0,87.3
28.0,90.1
30.0,92.9
32.0,95.7
34.0,98.3
36.0,100.7
38.0,102.9
40.0,104.9
42.0,106.7
44.0,108.3
46.0,109.4
48.0,110.3
50.0,111.1
52.0,111.8
54.0,112.6
56.0,113.4
58.0,114.1
60.0,114.7
62.0,115.3
64.0,115.7
66.0,116.1
68.0,116.4
70.0,116.6
72.0,116.7
74.0,116.7
76.0,116.6
78.0,116.4
80.0,116.1
85.0,115.3
90.0,114.4
95.0,113.3
100.0,111.9
110.0,108.7
120.0,105.0
140.0,97.7
160.0,91.0
200.0,80.8
