# REW export, gated, 2m ground plane, scaled to 1m/2.83V equivalent
freq,value
20,76.4
25,82.1
31.5,88.9
40,95.3
50,100.1
63,104.2
80,107.0
100,108.9
125,109.8
160,110.1
200,109.7
250,108.9
315,107.6
400,106.0
500,104.5
630,102.9
800,101.2
1000,99.9
1250,98.3
1600,96.5
2000,94.7
