# Hornresp SPL simulation, stacked x4, half-space, 2.83V/1m ref then scaled
freq,value
20,78.2
25,84.6
31.5,91.3
40,97.8
50,102.4
63,105.9
80,108.2
100,109.6
125,110.4
160,110.8
200,110.5
250,109.9
315,108.7
400,107.1
500,105.8
630,104.2
800,102.6
1000,101.3
1250,99.8
1600,98.1
2000,96.4
