# CATT-Acoustic phase simulation, both drivers combined, half-space
freq,value
20,178.2
25,165.4
31.5,142.1
40,108.6
50,72.3
63,38.9
80,12.4
100,-8.1
125,-24.6
160,-41.2
200,-56.8
250,-70.3
315,-82.9
400,-94.1
500,-103.7
630,-112.4
800,-119.8
1000,-126.2
1250,-131.9
1600,-137.0
2000,-141.6
